Potential/V,Current/A,,,,
,SPGE1,SPGE2,SPGE3,SPGE4,SPGE5
-0.146,-2.56E-06,-2.57E-06,-3.06E-06,-2.52E-06,-2.72E-06
-0.142,-2.55E-06,-2.57E-06,-3.02E-06,-2.49E-06,-2.71E-06
-0.138,-2.54E-06,-2.57E-06,-2.99E-06,-2.46E-06,-2.70E-06
-0.134,-2.53E-06,-2.57E-06,-2.97E-06,-2.44E-06,-2.68E-06
-0.13,-2.52E-06,-2.56E-06,-2.96E-06,-2.42E-06,-2.67E-06
-0.126,-2.51E-06,-2.55E-06,-2.96E-06,-2.40E-06,-2.66E-06
-0.122,-2.50E-06,-2.53E-06,-2.95E-06,-2.39E-06,-2.64E-06
-0.118,-2.49E-06,-2.52E-06,-2.96E-06,-2.39E-06,-2.64E-06
-0.114,-2.48E-06,-2.51E-06,-2.96E-06,-2.38E-06,-2.63E-06
-0.11,-2.48E-06,-2.51E-06,-2.97E-06,-2.38E-06,-2.63E-06
-0.106,-2.47E-06,-2.51E-06,-2.98E-06,-2.37E-06,-2.63E-06
-0.102,-2.47E-06,-2.50E-06,-3.00E-06,-2.37E-06,-2.63E-06
-0.098,-2.47E-06,-2.50E-06,-3.02E-06,-2.37E-06,-2.64E-06
-0.094,-2.47E-06,-2.51E-06,-3.05E-06,-2.37E-06,-2.65E-06
-0.09,-2.48E-06,-2.51E-06,-3.09E-06,-2.38E-06,-2.65E-06
-0.086,-2.50E-06,-2.50E-06,-3.12E-06,-2.38E-06,-2.65E-06
-0.082,-2.52E-06,-2.50E-06,-3.15E-06,-2.39E-06,-2.65E-06
-0.078,-2.53E-06,-2.49E-06,-3.19E-06,-2.39E-06,-2.66E-06
-0.074,-2.56E-06,-2.49E-06,-3.24E-06,-2.41E-06,-2.67E-06
-0.07,-2.58E-06,-2.50E-06,-3.29E-06,-2.43E-06,-2.68E-06
-0.066,-2.60E-06,-2.50E-06,-3.35E-06,-2.45E-06,-2.71E-06
-0.062,-2.63E-06,-2.51E-06,-3.42E-06,-2.47E-06,-2.73E-06
-0.058,-2.66E-06,-2.52E-06,-3.50E-06,-2.50E-06,-2.77E-06
-0.054,-2.69E-06,-2.53E-06,-3.59E-06,-2.53E-06,-2.82E-06
-0.05,-2.74E-06,-2.56E-06,-3.69E-06,-2.57E-06,-2.88E-06
-0.046,-2.80E-06,-2.60E-06,-3.81E-06,-2.63E-06,-2.94E-06
-0.042,-2.86E-06,-2.65E-06,-3.95E-06,-2.69E-06,-3.01E-06
-0.038,-2.94E-06,-2.69E-06,-4.09E-06,-2.75E-06,-3.07E-06
-0.034,-3.03E-06,-2.74E-06,-4.27E-06,-2.82E-06,-3.15E-06
-0.03,-3.12E-06,-2.79E-06,-4.46E-06,-2.89E-06,-3.24E-06
-0.026,-3.21E-06,-2.85E-06,-4.69E-06,-2.98E-06,-3.33E-06
-0.022,-3.31E-06,-2.90E-06,-4.92E-06,-3.06E-06,-3.44E-06
-0.018,-3.43E-06,-2.96E-06,-5.17E-06,-3.16E-06,-3.53E-06
-0.014,-3.55E-06,-3.02E-06,-5.42E-06,-3.26E-06,-3.63E-06
-0.01,-3.68E-06,-3.08E-06,-5.71E-06,-3.36E-06,-3.72E-06
-0.006,-3.82E-06,-3.15E-06,-6.02E-06,-3.46E-06,-3.82E-06
-0.002,-3.96E-06,-3.22E-06,-6.36E-06,-3.56E-06,-3.91E-06
0.002,-4.10E-06,-3.28E-06,-6.72E-06,-3.66E-06,-4.02E-06
0.006,-4.24E-06,-3.34E-06,-7.11E-06,-3.77E-06,-4.15E-06
0.01,-4.38E-06,-3.41E-06,-7.51E-06,-3.89E-06,-4.28E-06
0.014,-4.54E-06,-3.48E-06,-7.93E-06,-4.03E-06,-4.40E-06
0.018,-4.70E-06,-3.57E-06,-8.37E-06,-4.17E-06,-4.52E-06
0.022,-4.87E-06,-3.65E-06,-8.82E-06,-4.32E-06,-4.62E-06
0.026,-5.03E-06,-3.72E-06,-9.28E-06,-4.46E-06,-4.72E-06
0.03,-5.20E-06,-3.78E-06,-9.76E-06,-4.59E-06,-4.81E-06
0.034,-5.36E-06,-3.84E-06,-1.02E-05,-4.72E-06,-4.90E-06
0.038,-5.51E-06,-3.89E-06,-1.07E-05,-4.84E-06,-4.99E-06
0.042,-5.64E-06,-3.94E-06,-1.12E-05,-4.94E-06,-5.07E-06
0.046,-5.77E-06,-3.98E-06,-1.16E-05,-5.04E-06,-5.15E-06
0.05,-5.88E-06,-4.02E-06,-1.20E-05,-5.12E-06,-5.21E-06
0.054,-5.98E-06,-4.05E-06,-1.24E-05,-5.19E-06,-5.26E-06
0.058,-6.06E-06,-4.07E-06,-1.27E-05,-5.24E-06,-5.29E-06
0.062,-6.12E-06,-4.09E-06,-1.29E-05,-5.27E-06,-5.30E-06
0.066,-6.17E-06,-4.10E-06,-1.31E-05,-5.27E-06,-5.29E-06
0.07,-6.20E-06,-4.10E-06,-1.32E-05,-5.26E-06,-5.28E-06
0.074,-6.21E-06,-4.09E-06,-1.32E-05,-5.22E-06,-5.25E-06
0.078,-6.20E-06,-4.08E-06,-1.32E-05,-5.17E-06,-5.20E-06
0.082,-6.16E-06,-4.04E-06,-1.31E-05,-5.09E-06,-5.14E-06
0.086,-6.09E-06,-4.00E-06,-1.29E-05,-5.00E-06,-5.06E-06
0.09,-6.00E-06,-3.94E-06,-1.26E-05,-4.89E-06,-4.97E-06
0.094,-5.89E-06,-3.87E-06,-1.23E-05,-4.76E-06,-4.86E-06
0.098,-5.76E-06,-3.79E-06,-1.19E-05,-4.62E-06,-4.74E-06
0.102,-5.61E-06,-3.71E-06,-1.15E-05,-4.47E-06,-4.60E-06
0.106,-5.45E-06,-3.63E-06,-1.10E-05,-4.30E-06,-4.46E-06
0.11,-5.27E-06,-3.54E-06,-1.04E-05,-4.13E-06,-4.31E-06
0.114,-5.08E-06,-3.45E-06,-9.87E-06,-3.96E-06,-4.16E-06
0.118,-4.88E-06,-3.35E-06,-9.29E-06,-3.78E-06,-4.01E-06
0.122,-4.68E-06,-3.24E-06,-8.71E-06,-3.61E-06,-3.85E-06
0.126,-4.47E-06,-3.14E-06,-8.14E-06,-3.44E-06,-3.70E-06
0.13,-4.26E-06,-3.04E-06,-7.59E-06,-3.28E-06,-3.54E-06
0.134,-4.07E-06,-2.94E-06,-7.06E-06,-3.13E-06,-3.39E-06
0.138,-3.88E-06,-2.85E-06,-6.57E-06,-2.98E-06,-3.24E-06
0.142,-3.70E-06,-2.75E-06,-6.10E-06,-2.83E-06,-3.11E-06
0.146,-3.53E-06,-2.66E-06,-5.65E-06,-2.70E-06,-2.98E-06
0.15,-3.36E-06,-2.57E-06,-5.23E-06,-2.57E-06,-2.85E-06
0.154,-3.20E-06,-2.48E-06,-4.85E-06,-2.44E-06,-2.73E-06
0.158,-3.06E-06,-2.40E-06,-4.51E-06,-2.34E-06,-2.61E-06
0.162,-2.92E-06,-2.32E-06,-4.19E-06,-2.23E-06,-2.50E-06
0.166,-2.80E-06,-2.24E-06,-3.91E-06,-2.14E-06,-2.40E-06
0.17,-2.69E-06,-2.17E-06,-3.65E-06,-2.05E-06,-2.31E-06
0.174,-2.58E-06,-2.10E-06,-3.42E-06,-1.96E-06,-2.21E-06
0.178,-2.48E-06,-2.03E-06,-3.21E-06,-1.89E-06,-2.12E-06
0.182,-2.39E-06,-1.97E-06,-3.02E-06,-1.82E-06,-2.05E-06
0.186,-2.30E-06,-1.91E-06,-2.86E-06,-1.76E-06,-1.97E-06
0.19,-2.23E-06,-1.86E-06,-2.71E-06,-1.70E-06,-1.90E-06
0.194,-2.16E-06,-1.81E-06,-2.59E-06,-1.65E-06,-1.84E-06
0.198,-2.09E-06,-1.77E-06,-2.47E-06,-1.60E-06,-1.79E-06
0.202,-2.03E-06,-1.72E-06,-2.36E-06,-1.56E-06,-1.73E-06
0.206,-1.97E-06,-1.68E-06,-2.26E-06,-1.52E-06,-1.68E-06
0.21,-1.91E-06,-1.63E-06,-2.17E-06,-1.49E-06,-1.64E-06
0.214,-1.86E-06,-1.60E-06,-2.10E-06,-1.45E-06,-1.59E-06
0.218,-1.82E-06,-1.56E-06,-2.04E-06,-1.42E-06,-1.55E-06
0.222,-1.78E-06,-1.54E-06,-1.99E-06,-1.39E-06,-1.52E-06
0.226,-1.74E-06,-1.51E-06,-1.94E-06,-1.37E-06,-1.49E-06
0.23,-1.71E-06,-1.50E-06,-1.90E-06,-1.34E-06,-1.47E-06
0.234,-1.67E-06,-1.48E-06,-1.86E-06,-1.32E-06,-1.45E-06
0.238,-1.65E-06,-1.46E-06,-1.83E-06,-1.30E-06,-1.42E-06
0.242,-1.63E-06,-1.45E-06,-1.80E-06,-1.29E-06,-1.40E-06
0.246,-1.61E-06,-1.43E-06,-1.78E-06,-1.28E-06,-1.39E-06
0.25,-1.58E-06,-1.42E-06,-1.76E-06,-1.27E-06,-1.38E-06
0.254,-1.56E-06,-1.42E-06,-1.75E-06,-1.26E-06,-1.36E-06
0.258,-1.54E-06,-1.40E-06,-1.74E-06,-1.25E-06,-1.35E-06
0.262,-1.52E-06,-1.40E-06,-1.73E-06,-1.24E-06,-1.35E-06
0.266,-1.51E-06,-1.39E-06,-1.72E-06,-1.23E-06,-1.34E-06
0.27,-1.50E-06,-1.39E-06,-1.72E-06,-1.23E-06,-1.34E-06
0.274,-1.49E-06,-1.39E-06,-1.71E-06,-1.23E-06,-1.34E-06
0.278,-1.49E-06,-1.39E-06,-1.70E-06,-1.23E-06,-1.34E-06
0.282,-1.48E-06,-1.38E-06,-1.70E-06,-1.22E-06,-1.34E-06
0.286,-1.48E-06,-1.38E-06,-1.71E-06,-1.22E-06,-1.34E-06
0.29,-1.47E-06,-1.38E-06,-1.71E-06,-1.22E-06,-1.34E-06
0.294,-1.47E-06,-1.39E-06,-1.71E-06,-1.22E-06,-1.35E-06
0.298,-1.46E-06,-1.39E-06,-1.71E-06,-1.22E-06,-1.34E-06
0.302,-1.45E-06,-1.39E-06,-1.72E-06,-1.22E-06,-1.35E-06
0.306,-1.45E-06,-1.39E-06,-1.73E-06,-1.22E-06,-1.35E-06
0.31,-1.45E-06,-1.40E-06,-1.73E-06,-1.22E-06,-1.35E-06
0.314,-1.45E-06,-1.40E-06,-1.74E-06,-1.22E-06,-1.36E-06
0.318,-1.45E-06,-1.41E-06,-1.75E-06,-1.22E-06,-1.36E-06
0.322,-1.45E-06,-1.41E-06,-1.75E-06,-1.22E-06,-1.36E-06
0.326,-1.45E-06,-1.41E-06,-1.76E-06,-1.22E-06,-1.37E-06
0.33,-1.44E-06,-1.42E-06,-1.76E-06,-1.22E-06,-1.38E-06
0.334,-1.44E-06,-1.43E-06,-1.76E-06,-1.22E-06,-1.39E-06
0.338,-1.44E-06,-1.43E-06,-1.76E-06,-1.22E-06,-1.39E-06
0.342,-1.44E-06,-1.44E-06,-1.76E-06,-1.21E-06,-1.40E-06
0.346,-1.43E-06,-1.45E-06,-1.77E-06,-1.21E-06,-1.40E-06
0.35,-1.43E-06,-1.45E-06,-1.77E-06,-1.21E-06,-1.40E-06
